# Mass function for redshift 1.000000
# 1) mass (Msun/h)
# 2) n(m) (Mpc^-3 Msun^-1 h^4)
# 3) upper +1-sigma limit for n(m) (Mpc^-3 Msun^-1 h^4)
# 4) lower -1-sigma limit for n(m) (Mpc^-3 Msun^-1 h^4)
# 5) number of halos in the bin
# 6) analytical n(m) from Watson et al. 2013
#
    9.023439e+11   3.3117512e-15    3.407393e-15   3.2161093e-15         1199    4.7119092e-15         0.87221501
   1.0358165e+12   2.6737074e-15   2.7952395e-15   2.5521752e-15          484    3.6202461e-15         0.88993662
   1.1613212e+12   2.2207239e-15   2.2990428e-15    2.142405e-15          804     2.909554e-15          0.9050529
   1.2947706e+12   1.9776596e-15   2.0821821e-15    1.873137e-15          358    2.3633992e-15         0.91979906
   1.4230447e+12   1.5854422e-15   1.6516173e-15   1.5192671e-15          574    1.9729137e-15         0.93290625
   1.5937091e+12   1.3893335e-15   1.4512808e-15   1.3273862e-15          503    1.5887117e-15         0.94900257
   1.8101224e+12   1.0569615e-15   1.1010782e-15   1.0128447e-15          574    1.2452693e-15         0.96761035
   2.0650214e+12   8.6545624e-16   9.0537676e-16   8.2553572e-16          470    9.6774476e-16         0.98745663
   2.3262104e+12   6.5369567e-16   6.8839023e-16   6.1900111e-16          355    7.7038924e-16          1.0059374
   2.5856584e+12   5.3216352e-16   5.6346725e-16   5.0085978e-16          289    6.2908977e-16          1.0227901
    2.893882e+12   4.2812463e-16   4.5244047e-16   4.0380878e-16          310    5.0689714e-16          1.0412157
   3.2359815e+12   3.7840693e-16   4.0126733e-16   3.5554653e-16          274    4.0905512e-16          1.0599987
   3.6098022e+12   3.1266908e-16   3.3125533e-16   2.9408284e-16          283      3.31562e-16          1.0788771
   4.0923875e+12   2.2649174e-16   2.4093233e-16   2.1205115e-16          246    2.6046172e-16          1.1011786
   4.5928928e+12   1.8506032e-16   1.9811347e-16   1.7200717e-16          201    2.0855632e-16          1.1223055
   5.1682928e+12   1.4520725e-16   1.5591207e-16   1.3450243e-16          184    1.6608743e-16          1.1445557
   5.7946381e+12   1.2626717e-16   1.3624947e-16   1.1628488e-16          160    1.3314959e-16          1.1667582
   6.4715328e+12   1.1416657e-16   1.2253767e-16   1.0579547e-16          186    1.0751183e-16          1.1888207
   7.2567377e+12   7.1262035e-17   7.7536307e-17   6.4987763e-17          129    8.6096253e-17          1.2123554
   8.0974544e+12   5.8003982e-17   6.3664591e-17   5.2343373e-17          105    6.9571803e-17          1.2355419
   9.1211776e+12   5.1417449e-17   5.6091763e-17   4.6743136e-17          121    5.5165553e-17          1.2614804
   1.0240459e+13   4.2068822e-17   4.6296898e-17   3.7840746e-17           99    4.3996383e-17          1.2874851
   1.1443026e+13   3.0383038e-17   3.3621881e-17   2.7144195e-17           88    3.5389767e-17          1.3131872
   1.2971875e+13   3.2495228e-17   3.5744751e-17   2.9245705e-17          100    2.7651863e-17          1.3431413
   1.4522744e+13   2.3550489e-17    2.616721e-17   2.0933768e-17           81     2.212307e-17          1.3709906
   1.6239457e+13   1.8581362e-17   2.0741402e-17   1.6421323e-17           74    1.7725863e-17          1.3993903
   1.8153164e+13   1.6572566e-17   1.8525662e-17   1.4619471e-17           72    1.4197937e-17          1.4285785
   2.0509441e+13   1.2429425e-17   1.3995385e-17   1.0863464e-17           63    1.1119983e-17          1.4615933
   2.2800595e+13   7.5497246e-18   8.7287935e-18   6.3706557e-18           41    8.9851006e-18          1.4911576
   2.5706248e+13   7.4181963e-18   8.5002515e-18   6.3361412e-18           47    7.0478091e-18          1.5257128
   2.9033327e+13   4.9426952e-18   5.7903604e-18     4.09503e-18           34    5.4993296e-18           1.561986
   3.2513129e+13     4.89644e-18   5.6804979e-18   4.1123821e-18           39    4.3589125e-18          1.5968636
   3.6919062e+13   3.5677052e-18    4.208484e-18   2.9269265e-18           31    3.3508449e-18          1.6373861
   4.1173706e+13   2.6114347e-18   3.1235792e-18   2.0992902e-18           26    2.6685559e-18          1.6733671
   4.6147783e+13   2.1734513e-18   2.6171052e-18   1.7297974e-18           24    2.0988195e-18          1.7122278
   5.1254745e+13   1.5435233e-18   1.8976319e-18   1.1894148e-18           19    1.6791634e-18          1.7491546
   5.7647504e+13   1.4348542e-18   1.7556974e-18   1.1140111e-18           20    1.3046476e-18          1.7918854
   6.4972098e+13   1.0794392e-18   1.3412416e-18   8.1763673e-19           17    1.0061315e-18          1.8369284
   7.3170725e+13   9.1120639e-19    1.139008e-18    6.834048e-19           16    7.7467666e-19          1.8833071
   8.1174925e+13   6.1379875e-19   7.9098719e-19   4.3661031e-19           12     6.147198e-19          1.9252059
   9.1108693e+13    6.339233e-19   8.0334643e-19   4.6450017e-19           14    4.7366385e-19          1.9733827
   1.0448319e+14   3.6290291e-19   4.8387055e-19   2.4193527e-19            9     3.458665e-19          2.0328023
   1.1430667e+14   2.8697084e-19   3.8843036e-19   1.8551133e-19            8    2.8046471e-19          2.0731749
   1.3084089e+14   1.6058688e-19   2.3240352e-19   8.8770245e-20            5    2.0354985e-19           2.136045
    1.460789e+14    1.708512e-19   2.4060091e-19   1.0110149e-19            6    1.5591534e-19          2.1893278
   1.6040358e+14   1.7819964e-19   2.4555277e-19   1.1084651e-19            7    1.2383382e-19          2.2360569
   1.8415954e+14   9.0933148e-20   1.3639972e-19   4.5466574e-20            4    8.7491541e-20          2.3076521
   2.0604117e+14   6.0705371e-20   9.5753633e-20   2.5657109e-20            3    6.5508316e-20          2.3682496
     2.25808e+14     3.59882e-20   6.1435701e-20     1.05407e-20            2    5.1472803e-20          2.4193585
   2.5766272e+14   1.6105507e-20   3.2211013e-20               0            1     3.605731e-20          2.4957316
   2.8910232e+14    1.431137e-20    2.862274e-20               0            1     2.619538e-20          2.5651327
   3.2437814e+14   1.2757942e-20   2.5515883e-20               0            1    1.8857409e-20          2.6372462
   3.5006282e+14   2.2733287e-20   3.8808149e-20   6.6584256e-21            2    1.5088585e-20          2.6865323
   4.0836788e+14               0               0               0            0    9.4766659e-21          2.7901378
    4.581963e+14   9.0412255e-21   1.8082451e-20               0            1    6.6036298e-21          2.8711957
   5.1410471e+14               0               0               0            0    4.5431063e-21          2.9555276
   5.7683497e+14               0               0               0            0    3.0823434e-21          3.0432936
   6.4721948e+14               0               0               0            0     2.059861e-21          3.1346628
    7.261922e+14               0               0               0            0    1.3540809e-21           3.229815
   8.1480105e+14   5.0820504e-21   1.0164101e-20               0            1    8.7431541e-22          3.3289403
   9.1422182e+14               0               0               0            0    5.5362432e-22          3.4322399
   1.0257737e+15               0               0               0            0    3.4318329e-22          3.5399263
   1.1509371e+15               0               0               0            0    2.0786013e-22          3.6522237
   1.2913726e+15               0               0               0            0    1.2275682e-22          3.7693676
   1.4489439e+15               0               0               0            0    7.0527735e-23          3.8916068
   1.6257418e+15               0               0               0            0    3.9321551e-23          4.0192058
   1.8241123e+15               0               0               0            0    2.1216301e-23          4.1524457
   2.0466877e+15               0               0               0            0     1.104512e-23          4.2916252
   2.2964214e+15               0               0               0            0    5.5295855e-24          4.4370623
   2.5766272e+15               0               0               0            0    2.6524819e-24          4.5890943
   2.8910232e+15               0               0               0            0    1.2142577e-24          4.7480765
   3.2437814e+15               0               0               0            0    5.2814836e-25          4.9143842
   3.6395826e+15               0               0               0            0    2.1721277e-25          5.0884157
   4.0836788e+15               0               0               0            0    8.4020669e-26          5.2705931
    4.581963e+15               0               0               0            0    3.0388287e-26          5.4613656
