# Mass function for redshift 0.000000
# 1) mass (Msun/h)
# 2) n(m) (Mpc^-3 Msun^-1 h^4)
# 3) upper +1-sigma limit for n(m) (Mpc^-3 Msun^-1 h^4)
# 4) lower -1-sigma limit for n(m) (Mpc^-3 Msun^-1 h^4)
# 5) number of halos in the bin
# 6) analytical n(m) from Watson et al. 2013
#
   9.0345691e+11   3.0189692e-15   3.1102855e-15   2.9276528e-15         1093    4.4947888e-15         0.53050124
   1.0358165e+12   2.4803608e-15   2.5974162e-15   2.3633053e-15          449    3.4619172e-15         0.54118317
   1.1645274e+12   1.8671758e-15   1.9389903e-15   1.7953613e-15          676     2.768276e-15         0.55060015
   1.2947706e+12   1.6572566e-15   1.7529384e-15   1.5615749e-15          300    2.2612119e-15         0.55934295
   1.4236311e+12   1.5467729e-15   1.6121359e-15   1.4814098e-15          560    1.8868297e-15         0.56734876
   1.5949484e+12   1.2318941e-15    1.290226e-15   1.1735622e-15          446     1.519219e-15         0.57717008
   1.8096361e+12   9.9251258e-16   1.0352631e-15   9.4976204e-16          539     1.194191e-15         0.58839344
   2.0645441e+12   7.6233805e-16   7.9980492e-16   7.2487118e-16          414    9.2902454e-16         0.60046497
   2.3218785e+12   6.2055054e-16   6.5435408e-16     5.86747e-16          337    7.4279549e-16         0.61154654
   2.5912619e+12   5.5426027e-16    5.862073e-16   5.2231324e-16          301    6.0271533e-16         0.62218583
   2.8790225e+12   4.5298348e-16   4.7799531e-16   4.2797165e-16          328    4.9325771e-16          0.6326593
   3.2372718e+12    3.452618e-16   3.6709807e-16   3.2342552e-16          250    3.9461252e-16         0.64464167
   3.6021732e+12   2.6737074e-16   2.8455798e-16   2.5018349e-16          242    3.2207049e-16          0.6558555
   4.0799224e+12   2.4214361e-16   2.5707482e-16   2.2721239e-16          263     2.541662e-16         0.66930769
   4.6119193e+12   1.6296357e-16   1.7521266e-16   1.5071448e-16          177    2.0134973e-16         0.68295719
   5.1602578e+12   1.4836393e-16   1.5918448e-16   1.3754338e-16          188    1.6264954e-16          0.6958397
   5.7688175e+12   1.0811627e-16   1.1735326e-16    9.887927e-17          137    1.3161098e-16         0.70898785
   6.4448948e+12   9.5138807e-17   1.0278054e-16   8.7497074e-17          155      1.06635e-16         0.72243116
   7.2912676e+12   8.2310413e-17   8.9053544e-17   7.5567281e-17          149    8.4366424e-17         0.73785301
   8.1472626e+12   6.5737846e-17   7.1764025e-17   5.9711668e-17          119    6.8339498e-17         0.75215129
   9.1113489e+12   4.5893261e-17   5.0309342e-17   4.1477179e-17          108    5.5271838e-17         0.76697919
   1.0286859e+13   3.9094259e-17   4.3170117e-17   3.5018401e-17           92    4.3905215e-17         0.78356557
   1.1522202e+13   3.5561965e-17    3.906599e-17   3.2057941e-17          103    3.5406053e-17         0.79955373
   1.2851299e+13   2.5021326e-17    2.787277e-17   2.2169881e-17           77    2.8782788e-17          0.8154058
   1.4350374e+13   2.9074678e-17   3.1982145e-17    2.616721e-17          100    2.3346712e-17           0.831904
    1.629751e+13    1.958576e-17   2.1803411e-17    1.736811e-17           78     1.833899e-17         0.85154948
   1.8245293e+13   1.3580297e-17   1.5348302e-17   1.1812293e-17           59    1.4802095e-17         0.86955845
   2.0650415e+13   1.0851085e-17   1.2314245e-17   9.3879251e-18           55    1.1701174e-17         0.88996281
   2.2944614e+13   9.9435398e-18   1.1296684e-17   8.5903954e-18           54     9.579455e-18          0.9078799
   2.5819884e+13   7.5760303e-18   8.6695361e-18   6.4825245e-18           48    7.6545684e-18         0.92859402
   2.8985279e+13    7.850163e-18   8.9184349e-18   6.7818911e-18           54    6.1437885e-18         0.94956069
   3.2496204e+13   4.2686913e-18   5.0007658e-18   3.5366168e-18           34    4.9426286e-18         0.97097641
   3.6313472e+13    5.639276e-18   6.4448869e-18   4.8336652e-18           49    4.0003191e-18         0.99245973
   4.0552773e+13   3.1136337e-18   3.6728588e-18   2.5544086e-18           31    3.2409077e-18          1.0145085
   4.5884679e+13   2.3545723e-18   2.8163419e-18   1.8928026e-18           26    2.5599939e-18          1.0400267
   5.2077401e+13   2.0309518e-18   2.4371421e-18   1.6247614e-18           25    2.0094625e-18          1.0671535
   5.7187758e+13   1.5065969e-18   1.8353633e-18   1.1778305e-18           21     1.679525e-18           1.087872
   6.4099778e+13   1.2699285e-18   1.5538931e-18   9.8596382e-19           20    1.3491463e-18          1.1139177
   7.2552586e+13   1.0820576e-18   1.3302986e-18   8.3381656e-19           19    1.0629875e-18          1.1432189
   8.2201335e+13   6.6494865e-19   8.4937222e-19   4.8052507e-19           13     8.353288e-19           1.173884
   9.1702644e+13   9.5088495e-19   1.1583851e-18   7.4338484e-19           21    6.7587838e-19          1.2017222
   1.0260169e+14   6.8548328e-19   8.5173739e-19   5.1922916e-19           17    5.4336748e-19           1.231294
   1.1408519e+14   6.8155576e-19   8.3791537e-19   5.2519614e-19           19    4.4179081e-19          1.2601901
   1.2691629e+14   1.9270426e-19   2.7137544e-19   1.1403307e-19            6    3.5854581e-19           1.290199
   1.4421443e+14     4.27128e-19   5.3741197e-19   3.1684402e-19           15    2.7879308e-19          1.3275249
   1.6122292e+14   2.2911382e-19   3.0548509e-19   1.5274255e-19            9    2.2355455e-19          1.3613503
   1.8277513e+14   2.9553273e-19   3.7749876e-19    2.135667e-19           13    1.7408053e-19          1.4008872
   2.0637411e+14   2.8329173e-19   3.5900463e-19   2.0757883e-19           14    1.3639799e-19          1.4407062
   2.2860717e+14    1.259587e-19   1.7356662e-19   7.8350787e-20            7      1.10882e-19          1.4754977
    2.538182e+14   1.2884405e-19    1.743973e-19   8.3290801e-20            8    8.9572509e-20           1.512297
   2.9799865e+14    4.293411e-20   6.7722129e-20    1.814609e-20            3    6.4330144e-20          1.5712753
   3.2367108e+14   5.1031767e-20    7.654765e-20   2.5515883e-20            4     5.414374e-20          1.6029001
   3.6087415e+14   4.5466574e-20   6.8199861e-20   2.2733287e-20            4    4.3054554e-20          1.6458988
   4.0836788e+14               0               0               0            0    3.3071797e-20          1.6967226
    4.581963e+14   9.0412255e-21   1.8082451e-20               0            1    2.5777012e-20          1.7460151
   5.1818447e+14   4.0263767e-20    5.827027e-20   2.2257263e-20            5    1.9667097e-20           1.800895
   5.7401498e+14   2.8697084e-20   4.3045627e-20   1.4348542e-20            4    1.5646962e-20          1.8483545
   6.3944406e+14   2.5574948e-20   3.8362422e-20   1.2787474e-20            4    1.2244448e-20          1.9002941
    7.261922e+14               0               0               0            0    9.1186177e-21          1.9640966
   8.1480105e+14   5.0820504e-21   1.0164101e-20               0            1    6.9422034e-21          2.0243762
   9.1422182e+14   4.5280236e-21   9.0560472e-21               0            1    5.2522872e-21          2.0871941
   1.0257737e+15               0               0               0            0    3.9464054e-21          2.1526797
   1.1509371e+15   3.5964771e-21   7.1929541e-21               0            1    2.9427265e-21          2.2209694
   1.2913726e+15               0               0               0            0    2.1759975e-21          2.2922063
   1.4489439e+15               0               0               0            0    1.5942658e-21          2.3665417
   1.6257418e+15   2.5457091e-21   5.0914182e-21               0            1    1.1562634e-21          2.4441365
   1.8241123e+15               0               0               0            0     8.292932e-22          2.5251616
   2.0466877e+15   2.0227714e-21   4.0455429e-21               0            1    5.8753158e-22          2.6097986
   2.2964214e+15               0               0               0            0     4.106684e-22          2.6982409
   2.5766272e+15               0               0               0            0    2.8281327e-22          2.7906938
   2.8910232e+15   1.4318789e-21   2.8637578e-21               0            1    1.9160609e-22          2.8873731
   3.2437814e+15               0               0               0            0    1.2749932e-22          2.9885072
   3.6395826e+15               0               0               0            0    8.3179104e-23          3.0943382
   4.0836788e+15               0               0               0            0    5.3097062e-23          3.2051229
    4.581963e+15               0               0               0            0    3.3092553e-23          3.3211344
